Time(s),Theta_MATLAB,Omega_MATLAB,Theta_CPP,Omega_CPP,Theta_IKF,Omega_IKF,CycleTime_us
0.000000,1.047701,0.505995,0.524106,0.512738,1.047695,0.505992,11165.000000
0.001000,1.048210,0.511985,0.524626,0.525471,1.048209,0.511426,42715.000000
0.002000,1.048725,0.517969,0.525158,0.538201,1.048724,0.517405,27.000000
0.003000,1.049245,0.523948,0.525703,0.550926,1.049245,0.523383,11.000000
0.004000,1.049772,0.529921,0.526261,0.563647,1.049772,0.529357,15.000000
0.005000,1.050305,0.535889,0.526832,0.576364,1.050305,0.535324,15.000000
0.006000,1.050844,0.541851,0.527415,0.589076,1.050844,0.541286,12.000000
0.007000,1.051389,0.547807,0.528011,0.601784,1.051389,0.547242,14.000000
0.008000,1.051940,0.553758,0.528620,0.614487,1.051940,0.553193,19.000000
0.009000,1.052497,0.559703,0.529241,0.627185,1.052496,0.559138,12.000000
0.010000,1.053059,0.565642,0.529876,0.639878,1.053059,0.565077,9.000000
0.011000,1.053628,0.571575,0.530522,0.652566,1.053628,0.571009,10.000000
0.012000,1.054202,0.577502,0.531182,0.665249,1.054202,0.576936,10.000000
0.013000,1.054783,0.583423,0.531854,0.677927,1.054783,0.582857,17.000000
0.014000,1.055369,0.589337,0.532539,0.690599,1.055369,0.588772,12.000000
0.015000,1.055961,0.595246,0.533237,0.703266,1.055961,0.594680,13.000000
0.016000,1.056560,0.601148,0.533947,0.715927,1.056559,0.600582,15.000000
0.017000,1.057164,0.607044,0.534670,0.728583,1.057163,0.606478,10.000000
0.018000,1.057774,0.612933,0.535405,0.741233,1.057773,0.612367,9.000000
0.019000,1.058390,0.618816,0.536154,0.753877,1.058389,0.618250,10.000000
0.020000,1.059011,0.624693,0.536914,0.766515,1.059011,0.624126,9.000000
0.021000,1.059639,0.630563,0.537688,0.779148,1.059639,0.629996,10.000000
0.022000,1.060273,0.636426,0.538474,0.791773,1.060272,0.635859,10.000000
0.023000,1.060912,0.642282,0.539273,0.804393,1.060912,0.641716,10.000000
0.024000,1.061557,0.648132,0.540084,0.817006,1.061557,0.647565,10.000000
0.025000,1.062208,0.653975,0.540908,0.829613,1.062208,0.653408,9.000000
0.026000,1.062865,0.659811,0.541744,0.842213,1.062865,0.659244,9.000000
0.027000,1.063528,0.665639,0.542594,0.854806,1.063527,0.665072,10.000000
0.028000,1.064196,0.671461,0.543455,0.867393,1.064196,0.670894,42.000000
0.029000,1.064871,0.677276,0.544330,0.879972,1.064870,0.676709,28.000000
0.030000,1.065551,0.683084,0.545217,0.892545,1.065551,0.682516,13.000000
0.031000,1.066237,0.688884,0.546116,0.905110,1.066237,0.688316,12.000000
0.032000,1.066929,0.694677,0.547028,0.917668,1.066928,0.694109,29.000000
0.033000,1.067626,0.700463,0.547953,0.930218,1.067626,0.699895,11.000000
0.034000,1.068330,0.706241,0.548890,0.942762,1.068329,0.705673,9.000000
0.035000,1.069039,0.712011,0.549839,0.955297,1.069038,0.711443,10.000000
0.036000,1.069754,0.717775,0.550802,0.967825,1.069753,0.717206,10.000000
0.037000,1.070474,0.723530,0.551776,0.980345,1.070474,0.722962,10.000000
0.038000,1.071201,0.729278,0.552763,0.992857,1.071200,0.728710,10.000000
0.039000,1.071933,0.735018,0.553763,1.005361,1.071932,0.734450,10.000000
0.040000,1.072671,0.740750,0.554775,1.017856,1.072670,0.740182,11.000000
0.041000,1.073414,0.746475,0.555800,1.030344,1.073414,0.745906,10.000000
0.042000,1.074164,0.752191,0.556837,1.042823,1.074163,0.751622,10.000000
0.043000,1.074919,0.757900,0.557887,1.055293,1.074918,0.757331,10.000000
0.044000,1.075679,0.763600,0.558949,1.067755,1.075679,0.763031,10.000000
0.045000,1.076446,0.769292,0.560024,1.080208,1.076446,0.768723,10.000000
0.046000,1.077218,0.774976,0.561111,1.092653,1.077218,0.774407,10.000000
0.047000,1.077996,0.780652,0.562210,1.105088,1.077996,0.780083,10.000000
0.048000,1.078779,0.786320,0.563322,1.117514,1.078779,0.785750,10.000000
0.049000,1.079568,0.791979,0.564447,1.129931,1.079568,0.791409,10.000000
0.050000,1.080363,0.797629,0.565583,1.142339,1.080363,0.797059,10.000000
0.051000,1.081164,0.803271,0.566733,1.154737,1.081163,0.802701,22.000000
0.052000,1.081970,0.808905,0.567894,1.167126,1.081969,0.808335,14.000000
0.053000,1.082781,0.814530,0.569068,1.179505,1.082781,0.813959,49677.000000
0.054000,1.083599,0.820146,0.570254,1.191874,1.083599,0.819575,16.000000
0.055000,1.084422,0.825753,0.571453,1.204233,1.084421,0.825183,17.000000
0.056000,1.085250,0.831352,0.572664,1.216582,1.085250,0.830781,15.000000
0.057000,1.086084,0.836942,0.573887,1.228921,1.086084,0.836371,14.000000
0.058000,1.086924,0.842522,0.575123,1.241250,1.086924,0.841951,12.000000
0.059000,1.087770,0.848094,0.576371,1.253568,1.087769,0.847523,14.000000
0.060000,1.088620,0.853657,0.577631,1.265876,1.088620,0.853085,13.000000
0.061000,1.089477,0.859210,0.578904,1.278173,1.089477,0.858639,15.000000
0.062000,1.090339,0.864754,0.580189,1.290460,1.090339,0.864183,13.000000
0.063000,1.091206,0.870289,0.581486,1.302735,1.091206,0.869718,11.000000
0.064000,1.092079,0.875815,0.582796,1.315000,1.092079,0.875243,68.000000
0.065000,1.092958,0.881331,0.584117,1.327253,1.092958,0.880759,16.000000
0.066000,1.093842,0.886838,0.585451,1.339495,1.093842,0.886266,12.000000
0.067000,1.094732,0.892335,0.586798,1.351726,1.094731,0.891763,13.000000
0.068000,1.095627,0.897823,0.588156,1.363945,1.095626,0.897250,13.000000
0.069000,1.096527,0.903301,0.589527,1.376152,1.096527,0.902728,13.000000
0.070000,1.097433,0.908769,0.590910,1.388348,1.097433,0.908196,14.000000
0.071000,1.098345,0.914228,0.592305,1.400532,1.098345,0.913655,11.000000
0.072000,1.099262,0.919676,0.593712,1.412704,1.099261,0.919103,12.000000
0.073000,1.100184,0.925115,0.595131,1.424864,1.100184,0.924542,11.000000
0.074000,1.101112,0.930544,0.596563,1.437011,1.101112,0.929970,13.000000
0.075000,1.102045,0.935962,0.598007,1.449146,1.102045,0.935389,12.000000
0.076000,1.102984,0.941371,0.599462,1.461269,1.102984,0.940797,14.000000
0.077000,1.103928,0.946770,0.600930,1.473378,1.103928,0.946196,13.000000
0.078000,1.104877,0.952158,0.602410,1.485476,1.104877,0.951584,13.000000
0.079000,1.105832,0.957536,0.603902,1.497560,1.105832,0.956962,13.000000
0.080000,1.106793,0.962903,0.605407,1.509631,1.106792,0.962329,14.000000
0.081000,1.107758,0.968261,0.606923,1.521689,1.107758,0.967686,14.000000
0.082000,1.108729,0.973607,0.608451,1.533734,1.108729,0.973033,14.000000
0.083000,1.109705,0.978944,0.609992,1.545765,1.109705,0.978369,11.000000
0.084000,1.110687,0.984269,0.611544,1.557782,1.110687,0.983695,13.000000
0.085000,1.111674,0.989584,0.613108,1.569786,1.111674,0.989009,12.000000
0.086000,1.112666,0.994889,0.614685,1.581776,1.112666,0.994314,12.000000
0.087000,1.113664,1.000182,0.616273,1.593753,1.113663,0.999607,12.000000
0.088000,1.114666,1.005465,0.617873,1.605715,1.114666,1.004889,14.000000
0.089000,1.115675,1.010737,0.619486,1.617662,1.115674,1.010161,14.000000
0.090000,1.116688,1.015997,0.621110,1.629596,1.116688,1.015422,12.000000
0.091000,1.117707,1.021247,0.622746,1.641515,1.117706,1.020671,14.000000
0.092000,1.118730,1.026486,0.624394,1.653419,1.118730,1.025910,15.000000
0.093000,1.119760,1.031713,0.626054,1.665308,1.119759,1.031137,14.000000
0.094000,1.120794,1.036930,0.627726,1.677183,1.120794,1.036353,13.000000
0.095000,1.121833,1.042135,0.629410,1.689042,1.121833,1.041558,12.000000
0.096000,1.122878,1.047328,0.631105,1.700887,1.122878,1.046752,11.000000
0.097000,1.123928,1.052511,0.632813,1.712716,1.123928,1.051934,13.000000
0.098000,1.124983,1.057681,0.634532,1.724529,1.124983,1.057105,11.000000
0.099000,1.126043,1.062841,0.636263,1.736327,1.126043,1.062264,13.000000
0.100000,1.127109,1.067988,0.638006,1.748109,1.127109,1.067411,19.000000
0.101000,1.128179,1.073125,0.639760,1.759876,1.128179,1.072547,10.000000
0.102000,1.129255,1.078249,0.641527,1.771626,1.129255,1.077671,11.000000
0.103000,1.130336,1.083362,0.643305,1.783360,1.130336,1.082784,237.000000
0.104000,1.131422,1.088462,0.645094,1.795078,1.131421,1.087885,226.000000
0.105000,1.132513,1.093551,0.646896,1.806779,1.132512,1.092973,49748.000000
0.106000,1.133609,1.098628,0.648709,1.818464,1.133609,1.098050,27.000000
0.107000,1.134710,1.103693,0.650534,1.830132,1.134710,1.103115,15.000000
0.108000,1.135816,1.108746,0.652371,1.841783,1.135816,1.108168,16.000000
0.109000,1.136928,1.113787,0.654219,1.853417,1.136927,1.113208,15.000000
0.110000,1.138044,1.118815,0.656079,1.865034,1.138044,1.118237,13.000000
0.111000,1.139165,1.123832,0.657950,1.876633,1.139165,1.123253,32.000000
0.112000,1.140291,1.128836,0.659833,1.888215,1.140291,1.128256,13.000000
0.113000,1.141423,1.133827,0.661728,1.899780,1.141423,1.133248,12.000000
0.114000,1.142559,1.138806,0.663634,1.911326,1.142559,1.138227,12.000000
0.115000,1.143700,1.143773,0.665551,1.922855,1.143700,1.143193,15.000000
0.116000,1.144847,1.148727,0.667481,1.934366,1.144846,1.148147,14.000000
0.117000,1.145998,1.153669,0.669421,1.945858,1.145998,1.153089,13.000000
0.118000,1.147154,1.158597,0.671373,1.957333,1.147154,1.158017,14.000000
0.119000,1.148315,1.163513,0.673337,1.968788,1.148315,1.162933,12.000000
0.120000,1.149481,1.168417,0.675312,1.980225,1.149481,1.167836,15.000000
0.121000,1.150652,1.173307,0.677299,1.991644,1.150652,1.172727,14.000000
0.122000,1.151828,1.178185,0.679297,2.003043,1.151827,1.177604,14.000000
0.123000,1.153008,1.183049,0.681306,2.014423,1.153008,1.182468,15.000000
0.124000,1.154194,1.187901,0.683327,2.025784,1.154193,1.187320,11.000000
0.125000,1.155384,1.192739,0.685359,2.037126,1.155384,1.192158,12.000000
0.126000,1.156579,1.197564,0.687402,2.048448,1.156579,1.196983,12.000000
0.127000,1.157779,1.202376,0.689457,2.059750,1.157779,1.201795,12.000000
0.128000,1.158984,1.207175,0.691523,2.071033,1.158984,1.206594,93.000000
0.129000,1.160194,1.211961,0.693600,2.082295,1.160193,1.211379,16.000000
0.130000,1.161408,1.216733,0.695688,2.093537,1.161408,1.216151,12.000000
0.131000,1.162627,1.221491,0.697788,2.104759,1.162627,1.220909,12.000000
0.132000,1.163851,1.226236,0.699899,2.115961,1.163851,1.225654,11.000000
0.133000,1.165079,1.230968,0.702021,2.127142,1.165079,1.230386,13.000000
0.134000,1.166313,1.235686,0.704154,2.138302,1.166312,1.235103,11.000000
0.135000,1.167551,1.240390,0.706299,2.149441,1.167551,1.239807,13.000000
0.136000,1.168794,1.245080,0.708454,2.160559,1.168793,1.244498,14.000000
0.137000,1.170041,1.249757,0.710621,2.171656,1.170041,1.249174,26.000000
0.138000,1.171293,1.254420,0.712799,2.182731,1.171293,1.253837,15.000000
0.139000,1.172550,1.259069,0.714987,2.193785,1.172550,1.258486,14.000000
0.140000,1.173811,1.263703,0.717187,2.204817,1.173811,1.263120,14.000000
0.141000,1.175077,1.268324,0.719398,2.215827,1.175077,1.267741,12.000000
0.142000,1.176348,1.272931,0.721620,2.226815,1.176348,1.272348,12.000000
0.143000,1.177623,1.277524,0.723853,2.237781,1.177623,1.276940,12.000000
0.144000,1.178903,1.282102,0.726097,2.248725,1.178903,1.281518,12.000000
0.145000,1.180187,1.286666,0.728351,2.259646,1.180187,1.286082,11.000000
0.146000,1.181476,1.291216,0.730617,2.270544,1.181476,1.290632,14.000000
0.147000,1.182770,1.295751,0.732894,2.281420,1.182769,1.295167,14.000000
0.148000,1.184068,1.300272,0.735181,2.292272,1.184067,1.299688,13.000000
0.149000,1.185370,1.304779,0.737479,2.303101,1.185370,1.304194,14.000000
0.150000,1.186677,1.309271,0.739788,2.313907,1.186677,1.308686,14.000000
0.151000,1.187989,1.313748,0.742108,2.324690,1.187988,1.313163,14.000000
0.152000,1.189305,1.318211,0.744439,2.335449,1.189304,1.317626,14.000000
0.153000,1.190625,1.322659,0.746780,2.346184,1.190625,1.322074,13.000000
0.154000,1.191950,1.327092,0.749132,2.356895,1.191950,1.326507,48314.000000
0.155000,1.193279,1.331510,0.751495,2.367582,1.193279,1.330925,18.000000
0.156000,1.194613,1.335914,0.753868,2.378244,1.194613,1.335328,11.000000
0.157000,1.195951,1.340302,0.756253,2.388882,1.195951,1.339716,10.000000
0.158000,1.197294,1.344676,0.758647,2.399496,1.197293,1.344090,11.000000
0.159000,1.198641,1.349034,0.761053,2.410084,1.198640,1.348448,11.000000
0.160000,1.199992,1.353377,0.763468,2.420648,1.199991,1.352791,11.000000
0.161000,1.201347,1.357705,0.765895,2.431187,1.201347,1.357119,11.000000
0.162000,1.202707,1.362018,0.768332,2.441700,1.202707,1.361432,11.000000
0.163000,1.204071,1.366316,0.770779,2.452187,1.204071,1.365729,14.000000
0.164000,1.205440,1.370598,0.773237,2.462650,1.205439,1.370011,11.000000
0.165000,1.206812,1.374865,0.775706,2.473086,1.206812,1.374278,12.000000
0.166000,1.208189,1.379116,0.778184,2.483496,1.208189,1.378529,11.000000
0.167000,1.209571,1.383352,0.780674,2.493880,1.209570,1.382765,11.000000
0.168000,1.210956,1.387573,0.783173,2.504238,1.210956,1.386985,11.000000
0.169000,1.212346,1.391777,0.785683,2.514569,1.212346,1.391190,10.000000
0.170000,1.213740,1.395966,0.788203,2.524874,1.213739,1.395379,11.000000
0.171000,1.215138,1.400140,0.790734,2.535152,1.215137,1.399552,11.000000
0.172000,1.216540,1.404297,0.793275,2.545403,1.216540,1.403710,10.000000
0.173000,1.217946,1.408439,0.795826,2.555626,1.217946,1.407851,11.000000
0.174000,1.219357,1.412565,0.798387,2.565823,1.219357,1.411977,11.000000
0.175000,1.220772,1.416675,0.800958,2.575992,1.220771,1.416087,11.000000
0.176000,1.222190,1.420769,0.803540,2.586133,1.222190,1.420180,11.000000
0.177000,1.223613,1.424846,0.806132,2.596246,1.223613,1.424258,11.000000
0.178000,1.225040,1.428908,0.808734,2.606332,1.225040,1.428320,11.000000
0.179000,1.226471,1.432954,0.811345,2.616389,1.226471,1.432365,11.000000
0.180000,1.227906,1.436983,0.813967,2.626417,1.227906,1.436394,11.000000
0.181000,1.229345,1.440996,0.816599,2.636418,1.229345,1.440407,10.000000
0.182000,1.230788,1.444993,0.819241,2.646389,1.230788,1.444404,11.000000
0.183000,1.232235,1.448974,0.821893,2.656332,1.232234,1.448385,11.000000
0.184000,1.233686,1.452938,0.824555,2.666245,1.233685,1.452348,11.000000
0.185000,1.235141,1.456885,0.827226,2.676130,1.235140,1.456296,10.000000
0.186000,1.236600,1.460816,0.829908,2.685985,1.236599,1.460227,10.000000
0.187000,1.238062,1.464731,0.832599,2.695810,1.238062,1.464141,11.000000
0.188000,1.239529,1.468628,0.835301,2.705606,1.239529,1.468039,10.000000
0.189000,1.241000,1.472510,0.838012,2.715372,1.240999,1.471920,11.000000
0.190000,1.242474,1.476374,0.840732,2.725107,1.242474,1.475784,11.000000
0.191000,1.243952,1.480222,0.843463,2.734813,1.243952,1.479632,10.000000
0.192000,1.245434,1.484052,0.846203,2.744488,1.245434,1.483462,11.000000
0.193000,1.246920,1.487866,0.848953,2.754132,1.246920,1.487276,11.000000
0.194000,1.248410,1.491663,0.851712,2.763746,1.248410,1.491073,11.000000
0.195000,1.249904,1.495443,0.854481,2.773328,1.249903,1.494853,11.000000
0.196000,1.251401,1.499206,0.857260,2.782880,1.251401,1.498616,11.000000
0.197000,1.252902,1.502952,0.860048,2.792400,1.252902,1.502362,11.000000
0.198000,1.254407,1.506681,0.862845,2.801889,1.254407,1.506090,11.000000
0.199000,1.255915,1.510392,0.865653,2.811346,1.255915,1.509802,11.000000
0.200000,1.257428,1.514087,0.868469,2.820771,1.257427,1.513496,12.000000
0.201000,1.258944,1.517764,0.871295,2.830164,1.258943,1.517173,11.000000
0.202000,1.260463,1.521423,0.874130,2.839525,1.260463,1.520832,11.000000
0.203000,1.261986,1.525066,0.876975,2.848854,1.261986,1.524475,11.000000
0.204000,1.263513,1.528691,0.879829,2.858150,1.263513,1.528099,101.000000
0.205000,1.265044,1.532298,0.882692,2.867413,1.265044,1.531707,416.000000
0.206000,1.266578,1.535888,0.885565,2.876644,1.266578,1.535296,44514.000000
0.207000,1.268116,1.539460,0.888446,2.885841,1.268115,1.538869,11.000000
0.208000,1.269657,1.543015,0.891337,2.895005,1.269657,1.542423,10.000000
0.209000,1.271202,1.546552,0.894237,2.904136,1.271201,1.545960,10.000000
0.210000,1.272750,1.550071,0.897146,2.913233,1.272750,1.549479,10.000000
0.211000,1.274302,1.553572,0.900065,2.922297,1.274301,1.552980,10.000000
0.212000,1.275857,1.557056,0.902992,2.931326,1.275857,1.556464,10.000000
0.213000,1.277416,1.560522,0.905928,2.940322,1.277416,1.559930,10.000000
0.214000,1.278978,1.563970,0.908873,2.949283,1.278978,1.563377,11.000000
0.215000,1.280544,1.567400,0.911828,2.958209,1.280544,1.566807,10.000000
0.216000,1.282113,1.570811,0.914791,2.967101,1.282113,1.570219,10.000000
0.217000,1.283685,1.574205,0.917763,2.975959,1.283685,1.573613,10.000000
0.218000,1.285261,1.577581,0.920744,2.984781,1.285261,1.576988,10.000000
0.219000,1.286841,1.580939,0.923733,2.993568,1.286840,1.580346,10.000000
0.220000,1.288423,1.584278,0.926732,3.002320,1.288423,1.583685,10.000000
0.221000,1.290009,1.587599,0.929739,3.011036,1.290009,1.587006,10.000000
0.222000,1.291598,1.590902,0.932754,3.019716,1.291598,1.590309,10.000000
0.223000,1.293191,1.594186,0.935779,3.028361,1.293191,1.593594,10.000000
0.224000,1.294787,1.597453,0.938812,3.036970,1.294786,1.596860,10.000000
0.225000,1.296386,1.600700,0.941854,3.045542,1.296386,1.600107,10.000000
0.226000,1.297988,1.603930,0.944904,3.054078,1.297988,1.603336,10.000000
0.227000,1.299594,1.607140,0.947963,3.062578,1.299593,1.606547,10.000000
0.228000,1.301202,1.610332,0.951030,3.071040,1.301202,1.609739,10.000000
0.229000,1.302814,1.613506,0.954106,3.079466,1.302814,1.612913,10.000000
0.230000,1.304429,1.616661,0.957190,3.087855,1.304429,1.616068,10.000000
0.231000,1.306048,1.619797,0.960282,3.096206,1.306047,1.619204,10.000000
0.232000,1.307669,1.622915,0.963383,3.104520,1.307669,1.622321,10.000000
0.233000,1.309293,1.626013,0.966492,3.112797,1.309293,1.625420,666.000000
0.234000,1.310921,1.629093,0.969609,3.121035,1.310921,1.628500,18.000000
0.235000,1.312552,1.632154,0.972735,3.129236,1.312551,1.631561,8.000000
0.236000,1.314185,1.635197,0.975869,3.137399,1.314185,1.634603,8.000000
0.237000,1.315822,1.638220,0.979011,3.145523,1.315822,1.637626,8.000000
0.238000,1.317462,1.641224,0.982160,3.153609,1.317461,1.640630,8.000000
0.239000,1.319104,1.644209,0.985319,3.161656,1.319104,1.643615,8.000000
0.240000,1.320750,1.647175,0.988485,3.169665,1.320750,1.646581,8.000000
0.241000,1.322399,1.650122,0.991659,3.177634,1.322399,1.649528,8.000000
0.242000,1.324050,1.653050,0.994841,3.185564,1.324050,1.652456,17.000000
0.243000,1.325705,1.655959,0.998031,3.193455,1.325705,1.655365,15.000000
0.244000,1.327362,1.658848,1.001228,3.201307,1.327362,1.658254,16.000000
0.245000,1.329023,1.661718,1.004434,3.209119,1.329022,1.661124,14.000000
0.246000,1.330686,1.664569,1.007647,3.216891,1.330685,1.663975,11.000000
0.247000,1.332352,1.667400,1.010868,3.224623,1.332351,1.666806,20.000000
0.248000,1.334021,1.670213,1.014097,3.232315,1.334020,1.669618,12.000000
0.249000,1.335692,1.673005,1.017334,3.239966,1.335692,1.672411,13.000000
0.250000,1.337367,1.675778,1.020578,3.247577,1.337366,1.675184,54000.000000
0.251000,1.339044,1.678532,1.023830,3.255148,1.339043,1.677937,12.000000
0.252000,1.340724,1.681266,1.027089,3.262677,1.340723,1.680671,10.000000
0.253000,1.342406,1.683980,1.030356,3.270166,1.342406,1.683386,10.000000
0.254000,1.344092,1.686675,1.033630,3.277613,1.344091,1.686081,11.000000
0.255000,1.345780,1.689350,1.036912,3.285019,1.345779,1.688756,10.000000
0.256000,1.347470,1.692006,1.040201,3.292384,1.347470,1.691411,102.000000
0.257000,1.349164,1.694641,1.043497,3.299707,1.349163,1.694047,25.000000
0.258000,1.350860,1.697257,1.046801,3.306988,1.350859,1.696663,8.000000
0.259000,1.352558,1.699853,1.050112,3.314227,1.352558,1.699259,10.000000
0.260000,1.354259,1.702430,1.053430,3.321424,1.354259,1.701835,17.000000
0.261000,1.355963,1.704986,1.056756,3.328578,1.355963,1.704391,10.000000
0.262000,1.357669,1.707522,1.060088,3.335691,1.357669,1.706928,12.000000
0.263000,1.359378,1.710039,1.063428,3.342760,1.359378,1.709444,10.000000
0.264000,1.361089,1.712535,1.066774,3.349787,1.361089,1.711941,10.000000
0.265000,1.362803,1.715012,1.070128,3.356770,1.362803,1.714417,11.000000
0.266000,1.364519,1.717468,1.073488,3.363711,1.364519,1.716873,14.000000
0.267000,1.366238,1.719904,1.076856,3.370608,1.366238,1.719310,10.000000
0.268000,1.367959,1.722320,1.080230,3.377462,1.367959,1.721726,7.000000
0.269000,1.369683,1.724716,1.083612,3.384272,1.369682,1.724121,7.000000
0.270000,1.371409,1.727092,1.087000,3.391039,1.371408,1.726497,13.000000
0.271000,1.373137,1.729447,1.090394,3.397762,1.373137,1.728853,56.000000
